"Time (s)","Magnetic Field x (µT)","Magnetic Field y (µT)","Magnetic Field z (µT)","Absolute field (µT)"
1.358437492E-2,1.159309387E1,-6.777920532E1,1.029592896E1,6.953004137E1
2.354137506E-2,1.165071106E1,-6.774670410E1,1.037680054E1,6.952001851E1
3.349837498E-2,1.168522644E1,-6.777866364E1,1.037350464E1,6.955646167E1
4.345537513E-2,1.181575012E1,-6.792630005E1,1.047149658E1,6.973698036E1
5.341237504E-2,1.200956726E1,-6.784412384E1,1.069149780E1,6.972347503E1
6.336937496E-2,1.232524109E1,-6.785637665E1,1.083245850E1,6.981218788E1
7.332637510E-2,1.257733154E1,-6.796887970E1,1.097058105E1,6.998793843E1
8.328337502E-2,1.281193542E1,-6.807775879E1,1.122869873E1,7.017699485E1
9.324037493E-2,1.312028503E1,-6.824217224E1,1.131335449E1,7.040687425E1
1.031973751E-1,1.327102661E1,-6.841523743E1,1.163546753E1,7.065514110E1
1.131543750E-1,1.349940491E1,-6.838049316E1,1.192434692E1,7.071291132E1
1.231113749E-1,1.376759338E1,-6.828804779E1,1.230953979E1,7.074128122E1
1.330683751E-1,1.416206360E1,-6.831963348E1,1.228396606E1,7.084512818E1
1.430253750E-1,1.446688080E1,-6.842916870E1,1.247219849E1,7.104503856E1
1.529823751E-1,1.489651489E1,-6.846131897E1,1.282797241E1,7.122791045E1
1.629393750E-1,1.539877319E1,-6.845056152E1,1.312194824E1,7.137777745E1
1.728963749E-1,1.567928314E1,-6.857366180E1,1.342016602E1,7.161206511E1
1.828533751E-1,1.624494171E1,-6.856713867E1,1.384393311E1,7.181229087E1
1.928103750E-1,1.687785339E1,-6.833691406E1,1.396289062E1,7.176181487E1
2.027673749E-1,1.729611206E1,-6.832824707E1,1.482562256E1,7.202571710E1
2.127243751E-1,1.776961517E1,-6.815815735E1,1.498828125E1,7.201348632E1
2.226813750E-1,1.845979309E1,-6.795665741E1,1.533053589E1,7.206869347E1
2.326383749E-1,1.883885193E1,-6.775599670E1,1.553079224E1,7.202071187E1
2.425953750E-1,1.910162354E1,-6.769252014E1,1.570809937E1,7.206867343E1
2.525523750E-1,1.941700745E1,-6.759909058E1,1.566540527E1,7.205596538E1
2.625093751E-1,1.981697083E1,-6.735476685E1,1.592117310E1,7.199208778E1
2.724663750E-1,2.036438751E1,-6.707780457E1,1.632778931E1,7.197733565E1
2.824240001E-1,2.104610443E1,-6.679685974E1,1.681924438E1,7.202531475E1
2.923810000E-1,2.139876556E1,-6.684892273E1,1.728976440E1,7.228846098E1
3.023379999E-1,2.171861267E1,-6.681768036E1,1.799270630E1,7.252611960E1
3.122950001E-1,2.188968658E1,-6.697402191E1,1.860565186E1,7.287556704E1
3.222520000E-1,2.218505859E1,-6.734568787E1,1.941888428E1,7.351674344E1
3.322089999E-1,2.233400726E1,-6.766120148E1,1.985916138E1,7.396777918E1
3.421660000E-1,2.276606750E1,-6.752050781E1,2.062927246E1,7.418139718E1
3.521230000E-1,2.321263123E1,-6.755382538E1,2.104547119E1,7.446648528E1
3.620800001E-1,2.343618011E1,-6.746403503E1,2.189083862E1,7.469845632E1
3.720370000E-1,2.357894135E1,-6.755863190E1,2.249197388E1,7.500682707E1
3.819939999E-1,2.364479065E1,-6.762417603E1,2.300738525E1,7.524257494E1
3.919510001E-1,2.363806915E1,-6.781632233E1,2.324163818E1,7.548500270E1
4.019080000E-1,2.342266083E1,-6.778863525E1,2.365008545E1,7.551984277E1
4.118649999E-1,2.313855743E1,-6.804733276E1,2.378546143E1,7.570720251E1
4.218220001E-1,2.309088898E1,-6.815447235E1,2.367517090E1,7.575443863E1
4.317790000E-1,2.301712036E1,-6.798022461E1,2.329058838E1,7.545561791E1
4.417360001E-1,2.312276459E1,-6.750437927E1,2.258935547E1,7.484505624E1
4.516930000E-1,2.341716003E1,-6.685117340E1,2.185714722E1,7.412946549E1
4.616500000E-1,2.363582611E1,-6.611502838E1,2.096914673E1,7.327724318E1
4.716070001E-1,2.406900787E1,-6.517107391E1,2.034945679E1,7.239258530E1
4.815640000E-1,2.433123779E1,-6.446583557E1,1.999005127E1,7.174576809E1
4.915209999E-1,2.456797028E1,-6.384158325E1,1.964700317E1,7.117118553E1
5.014780001E-1,2.482292938E1,-6.321193695E1,1.964428711E1,7.069529555E1
5.114350000E-1,2.510593414E1,-6.255469131E1,1.951306152E1,7.017233718E1
5.213919999E-1,2.548881531E1,-6.190325546E1,1.937994385E1,6.969415303E1
5.313490001E-1,2.610364532E1,-6.095357513E1,1.928958130E1,6.905669097E1
5.413060000E-1,2.610364532E1,-6.095357513E1,1.928958130E1,6.905669097E1
5.512630001E-1,2.687049866E1,-5.979726028E1,1.971948242E1,6.845870304E1
5.612200000E-1,2.754291534E1,-5.855507278E1,1.960104370E1,6.761293995E1
5.711769999E-1,2.796208191E1,-5.711192322E1,1.969418335E1,6.656959258E1
5.811340001E-1,2.827994537E1,-5.566866302E1,1.951657104E1,6.541904844E1
5.910910000E-1,2.848840332E1,-5.445372009E1,1.918255615E1,6.437986654E1
6.010479999E-1,2.848079681E1,-5.338485718E1,1.865615845E1,6.331785697E1
6.110050001E-1,2.819804382E1,-5.254286194E1,1.817288208E1,6.233887759E1
6.209620000E-1,2.791408539E1,-5.182627106E1,1.796264648E1,6.154522893E1
6.309189999E-1,2.774832916E1,-5.113674545E1,1.767141724E1,6.080473250E1
6.408760000E-1,2.766708374E1,-5.056893158E1,1.736914062E1,6.020275251E1
6.508330000E-1,2.772985077E1,-4.989794159E1,1.746475220E1,5.969729280E1
6.607900001E-1,2.786381531E1,-4.917336655E1,1.746737671E1,5.915675304E1
6.707470000E-1,2.789688110E1,-4.856332779E1,1.777368164E1,5.875828912E1
6.807039999E-1,2.789348602E1,-4.819924545E1,1.788250732E1,5.848929725E1
6.906610001E-1,2.811042786E1,-4.799082947E1,1.835482788E1,5.856804226E1
7.006180000E-1,2.819435120E1,-4.787026215E1,1.850964355E1,5.855843527E1
7.105749999E-1,2.824188232E1,-4.792423630E1,1.879803467E1,5.871713931E1
7.205320001E-1,2.831018066E1,-4.825383759E1,1.909881592E1,5.911568269E1
7.304900000E-1,2.857833099E1,-4.839601135E1,1.985037231E1,5.960647782E1
7.404460001E-1,2.897808075E1,-4.873445129E1,2.093237305E1,6.043955781E1
7.504040000E-1,2.942671204E1,-4.911348724E1,2.203390503E1,6.134785230E1
7.603610000E-1,2.981439209E1,-4.915080261E1,2.338836670E1,6.206218712E1
7.703180001E-1,3.028769684E1,-4.930411911E1,2.455587769E1,6.285882492E1
7.802750000E-1,3.060774994E1,-4.952994156E1,2.586486816E1,6.371060251E1
7.902319999E-1,3.076721954E1,-5.026000214E1,2.634158325E1,6.454896298E1
8.001890001E-1,3.092135620E1,-5.068808746E1,2.708248901E1,6.526004667E1
8.101460000E-1,3.071476746E1,-5.177729034E1,2.771316528E1,6.627446164E1
8.201029999E-1,3.067401886E1,-5.270609283E1,2.769062805E1,6.697461114E1
8.300600001E-1,3.024008942E1,-5.389997101E1,2.762724304E1,6.769737396E1
8.400170000E-1,2.984130859E1,-5.481461716E1,2.692585754E1,6.797166878E1
8.499740001E-1,2.959149933E1,-5.545629501E1,2.613195801E1,6.807302490E1
8.599310000E-1,2.926302338E1,-5.585143280E1,2.517160034E1,6.789194758E1
8.698880000E-1,2.894024658E1,-5.632449341E1,2.427932739E1,6.781940849E1
8.798450001E-1,2.851448822E1,-5.660014343E1,2.336334229E1,6.754626591E1
8.898020000E-1,2.810550690E1,-5.681789398E1,2.233132935E1,6.720774408E1
8.997589999E-1,2.781824493E1,-5.677090454E1,2.150390625E1,6.677730406E1
9.097160001E-1,2.738198090E1,-5.664002228E1,2.054370117E1,6.618087835E1
9.196730000E-1,2.707936096E1,-5.658186722E1,1.982678223E1,6.578678273E1
9.296299999E-1,2.661011505E1,-5.658216858E1,1.884979248E1,6.530662065E1
9.395870001E-1,2.616409302E1,-5.660768890E1,1.813739014E1,6.494578606E1
9.495440000E-1,2.582767487E1,-5.659079742E1,1.747528076E1,6.461402773E1
9.595010001E-1,2.555796814E1,-5.667732239E1,1.698303223E1,6.445115974E1
9.694580000E-1,2.534473419E1,-5.670964432E1,1.641534424E1,6.424797924E1
9.794150000E-1,2.516271210E1,-5.672065735E1,1.611590576E1,6.411019785E1
9.893720001E-1,2.497855377E1,-5.662970734E1,1.577291870E1,6.387203509E1
9.993290000E-1,2.476940155E1,-5.672380829E1,1.540698242E1,6.378470653E1
1.009286000E0,2.441862488E1,-5.703800964E1,1.522921753E1,6.388687543E1
1.019243000E0,2.421189880E1,-5.726567078E1,1.506057739E1,6.397182258E1
1.029200000E0,2.408096313E1,-5.736851120E1,1.481915283E1,6.395815940E1
1.039157000E0,2.413782501E1,-5.752182007E1,1.469149780E1,6.408770934E1
1.049114000E0,2.403437805E1,-5.777326965E1,1.461544800E1,6.425739907E1
1.059071000E0,2.403437805E1,-5.777326965E1,1.461544800E1,6.425739907E1
1.069028000E0,2.390226746E1,-5.857173157E1,1.460501099E1,6.492512976E1
1.078985000E0,2.390226746E1,-5.857173157E1,1.460501099E1,6.492512976E1
1.088942000E0,2.363459778E1,-5.918354034E1,1.462380981E1,6.538456602E1
1.098899000E0,2.356473541E1,-5.946725464E1,1.466870117E1,6.562638131E1
1.108856000E0,2.356765747E1,-5.979895782E1,1.498953247E1,6.600027212E1
1.118813000E0,2.357956696E1,-6.028798676E1,1.505999756E1,6.646383115E1
1.128770000E0,2.362792206E1,-6.051641083E1,1.548312378E1,6.678504175E1
1.138727000E0,2.372676849E1,-6.086912537E1,1.532528687E1,6.710346029E1
1.148684000E0,2.378561401E1,-6.102010345E1,1.555554199E1,6.731406500E1
1.158641000E0,2.382793427E1,-6.111704254E1,1.555612183E1,6.741703247E1
1.168598000E0,2.392801666E1,-6.109698486E1,1.550109863E1,6.742162561E1
1.178555000E0,2.424029541E1,-6.093036270E1,1.534796143E1,6.734731576E1
1.188512000E0,2.430675507E1,-6.055935669E1,1.530624390E1,6.702637635E1
1.198469000E0,2.438694763E1,-6.037327194E1,1.508148193E1,6.683641430E1
1.208426000E0,2.465915680E1,-5.990798187E1,1.489010620E1,6.647372089E1
1.218383000E0,2.494469452E1,-5.923377991E1,1.463293457E1,6.591662340E1
1.228340000E0,2.513440704E1,-5.877922821E1,1.461950684E1,6.557793887E1
1.238297000E0,2.531101227E1,-5.830353546E1,1.438275146E1,6.516757728E1
1.248254000E0,2.545169067E1,-5.781082916E1,1.426553345E1,6.475635854E1
1.258211000E0,2.544789124E1,-5.753529358E1,1.406799316E1,6.446560019E1
1.268168000E0,2.548622894E1,-5.713836670E1,1.398474121E1,6.410860942E1
1.278124625E0,2.555171967E1,-5.684358215E1,1.379513550E1,6.383094056E1
1.288081625E0,2.569254303E1,-5.652559662E1,1.356091309E1,6.355429336E1
1.298038625E0,2.579383850E1,-5.626293182E1,1.347570801E1,6.334377877E1
1.307995625E0,2.603196716E1,-5.589376068E1,1.372421265E1,6.316747431E1
1.317952625E0,2.633843231E1,-5.536478806E1,1.388214111E1,6.286244201E1
1.327909625E0,2.654222870E1,-5.465364838E1,1.409149170E1,6.237051646E1
1.337866625E0,2.687577057E1,-5.406790161E1,1.433364868E1,6.205721967E1
1.347823625E0,2.726853180E1,-5.312112427E1,1.437142944E1,6.141632238E1
1.357780625E0,2.749733734E1,-5.253926086E1,1.446405029E1,6.103839975E1
1.367737625E0,2.775617218E1,-5.173993683E1,1.461181641E1,6.050563061E1
1.377694625E0,2.791243744E1,-5.104247665E1,1.484368896E1,6.003976756E1
1.387651625E0,2.814765930E1,-5.051931763E1,1.499639893E1,5.974432323E1
1.397608625E0,2.831303406E1,-5.013866425E1,1.496838379E1,5.949425235E1
1.407565625E0,2.870621490E1,-4.971909332E1,1.533419800E1,5.942367073E1
1.417522625E0,2.872179413E1,-4.951607132E1,1.550549316E1,5.930601230E1
1.427479625E0,2.894824219E1,-4.921032333E1,1.562902832E1,5.919394542E1
1.437436625E0,2.897692108E1,-4.920939636E1,1.550616455E1,5.917489151E1
1.447393625E0,2.882806396E1,-4.930135345E1,1.566287231E1,5.921998222E1
1.457350625E0,2.869386292E1,-4.957317734E1,1.554974365E1,5.935176668E1
1.467307625E0,2.859103394E1,-5.024142456E1,1.567846680E1,5.989542791E1
1.477264625E0,2.873161316E1,-5.106819153E1,1.585021973E1,6.070169064E1
1.487221625E0,2.897058868E1,-5.218208313E1,1.657974243E1,6.194475496E1
1.497178625E0,2.953427124E1,-5.289400101E1,1.776150513E1,6.313097167E1
1.507135625E0,3.004145050E1,-5.344232941E1,1.911300659E1,6.421743020E1
1.517092625E0,3.043068695E1,-5.394809723E1,2.006176758E1,6.510682315E1
1.527049625E0,3.067778778E1,-5.424682999E1,2.100125122E1,6.576395502E1
1.537006625E0,3.091101074E1,-5.482912827E1,2.139419556E1,6.647883494E1
1.546963625E0,3.084380341E1,-5.552507019E1,2.170620728E1,6.712326767E1
1.556920625E0,3.065348816E1,-5.613768768E1,2.177175903E1,6.756541871E1
1.566877625E0,3.067134857E1,-5.643277359E1,2.164093018E1,6.777698295E1
1.576834625E0,3.048085022E1,-5.668530273E1,2.195306396E1,6.800178522E1
1.586791625E0,3.076369476E1,-5.681763458E1,2.186108398E1,6.820964381E1
1.596748625E0,3.082186890E1,-5.709216690E1,2.241842651E1,6.864465727E1
1.606705625E0,3.099813080E1,-5.738230896E1,2.272845459E1,6.906660657E1
1.616662625E0,3.099813080E1,-5.738230896E1,2.272845459E1,6.906660657E1
1.626619625E0,3.134667206E1,-5.749215698E1,2.347634888E1,6.956364654E1
1.636576625E0,3.172827911E1,-5.751399994E1,2.422488403E1,7.000991995E1
1.646533625E0,3.196841431E1,-5.754969025E1,2.473028564E1,7.032448641E1
1.656490625E0,3.213468933E1,-5.752955627E1,2.528784180E1,7.058160558E1
1.666447625E0,3.216274261E1,-5.748072052E1,2.542977905E1,7.060558694E1
1.676404625E0,3.228949738E1,-5.746687317E1,2.505249023E1,7.051723491E1
1.686361625E0,3.235435486E1,-5.747547531E1,2.463430786E1,7.040655981E1
1.696318625E0,3.238541412E1,-5.724240112E1,2.445706177E1,7.016876374E1
1.706275625E0,3.243458557E1,-5.692461395E1,2.436929321E1,6.990190603E1
1.716232625E0,3.271256256E1,-5.661412430E1,2.445120239E1,6.980782275E1
1.726189625E0,3.308309937E1,-5.596090698E1,2.466348267E1,6.952986374E1
1.736146625E0,3.324917603E1,-5.542664337E1,2.465863037E1,6.917852668E1
1.746103625E0,3.353878784E1,-5.480659866E1,2.438604736E1,6.872621663E1
1.756060625E0,3.361708069E1,-5.421134949E1,2.413687134E1,6.820239794E1
1.766017625E0,3.379324341E1,-5.349194336E1,2.364880371E1,6.754729618E1
1.775974625E0,3.406190491E1,-5.268405151E1,2.324310303E1,6.690339669E1
1.785931625E0,3.415583801E1,-5.164157486E1,2.293255615E1,6.602556820E1
1.795888625E0,3.448335266E1,-5.035953140E1,2.273431396E1,6.513089164E1
1.805845625E0,3.466944885E1,-4.850938797E1,2.267819214E1,6.379209829E1
1.815802625E0,3.505360413E1,-4.634170914E1,2.267077637E1,6.237205519E1
1.825759625E0,3.532715607E1,-4.384746552E1,2.314569092E1,6.087964517E1
1.835716625E0,3.563616180E1,-4.066819000E1,2.466885376E1,5.943391332E1
1.845673625E0,3.576459503E1,-3.733392715E1,2.694027710E1,5.829842969E1
1.855630625E0,3.572043610E1,-3.443998718E1,2.916262817E1,5.755450594E1
1.865588625E0,3.530461121E1,-3.226970291E1,3.133828735E1,5.718249341E1
1.875545625E0,3.506443787E1,-3.111575890E1,3.206484985E1,5.679665352E1
1.885502625E0,3.502020264E1,-3.044004440E1,3.176564026E1,5.623225762E1
1.895459625E0,3.505953217E1,-3.015863419E1,3.076493835E1,5.554453568E1
1.905416625E0,3.494478607E1,-3.003760529E1,2.965040588E1,5.479545943E1
1.915373625E0,3.497309875E1,-2.981932449E1,2.838760376E1,5.402004995E1
1.925330625E0,3.463757324E1,-2.966253471E1,2.671688843E1,5.285281046E1
1.935287625E0,3.434043884E1,-2.949174500E1,2.524258423E1,5.182872583E1
1.945244625E0,3.383941650E1,-2.905363083E1,2.397726440E1,5.063722723E1
1.955201625E0,3.335687256E1,-2.856865692E1,2.253054810E1,4.936065946E1
1.965158625E0,3.247742462E1,-2.790634537E1,2.079830933E1,4.760374872E1
1.975115625E0,3.144331360E1,-2.734557724E1,1.865972900E1,4.565794620E1
1.985072625E0,3.028437042E1,-2.672462463E1,1.703875732E1,4.383683274E1
1.995029625E0,3.079293060E1,1.526370430E1,-1.739154053E1,3.851818955E1
2.004986625E0,2.971057129E1,1.570854187E1,-1.873361206E1,3.847628562E1
2.014943625E0,2.849736023E1,1.618393517E1,-2.016625977E1,3.847983018E1
2.024900625E0,2.692427826E1,1.648455238E1,-2.125845337E1,3.806020319E1
2.034857625E0,2.514063263E1,1.709828186E1,-2.263241577E1,3.790288769E1
2.044814625E0,2.300248718E1,1.749469376E1,-2.397459412E1,3.754943261E1
2.054771625E0,2.115809631E1,1.818947029E1,-2.519599915E1,3.759468369E1
2.064728625E0,1.935314178E1,1.855890846E1,-2.598391724E1,3.733819941E1
2.074685625E0,1.783277893E1,1.907384300E1,-2.635729980E1,3.710157334E1
2.084642625E0,1.695487976E1,1.993305969E1,-2.647323608E1,3.722401167E1
2.094599625E0,1.619737244E1,2.042209816E1,-2.661364746E1,3.725188852E1
2.104556625E0,1.600158691E1,2.095152855E1,-2.644354248E1,3.734003577E1
2.114513625E0,1.593697357E1,2.123291969E1,-2.604260254E1,3.718926125E1
2.124470625E0,1.620127869E1,2.163398361E1,-2.607272339E1,3.755392899E1
2.134427625E0,1.616539764E1,2.154377174E1,-2.606668091E1,3.748234298E1
2.144384625E0,1.616539764E1,2.154377174E1,-2.606668091E1,3.748234298E1
2.154341625E0,1.603137970E1,2.138898087E1,-2.626116943E1,3.747189157E1
2.164298625E0,1.597692871E1,2.116749763E1,-2.669161987E1,3.762668971E1
2.174255625E0,1.575150299E1,2.099428749E1,-2.699868774E1,3.765367304E1
2.184212625E0,1.565517426E1,2.075983238E1,-2.714804077E1,3.759083983E1
2.194169625E0,1.563963318E1,2.050846100E1,-2.751251221E1,3.771118437E1
2.204126625E0,1.562518311E1,2.034681702E1,-2.779754639E1,3.782648404E1
2.214083625E0,1.535949707E1,2.049014854E1,-2.780471802E1,3.780030002E1
2.224040625E0,1.491993713E1,2.108317184E1,-2.761373901E1,3.781035892E1
2.233997625E0,1.456729126E1,2.146969414E1,-2.777459717E1,3.800765698E1
2.243954625E0,1.424267578E1,2.129440117E1,-2.800234985E1,3.795308857E1
2.253911625E0,1.386000061E1,2.124975014E1,-2.811297607E1,3.786807259E1
2.263868625E0,1.349011230E1,2.092857933E1,-2.862780762E1,3.794126951E1
2.273825625E0,1.306370544E1,2.041773415E1,-2.919958496E1,3.794944044E1
2.283783000E0,1.271116638E1,1.974253464E1,-3.011062622E1,3.818365142E1
2.293740000E0,1.234197998E1,1.932889175E1,-3.049841309E1,3.815866516E1
2.303697000E0,1.180572510E1,1.926606178E1,-3.086648560E1,3.825305497E1
2.313654000E0,1.093038940E1,1.928609085E1,-3.108950806E1,3.818355960E1
2.323611000E0,1.035966492E1,1.937346458E1,-3.114651489E1,3.811507808E1
2.333568000E0,1.009484863E1,1.939420700E1,-3.131491089E1,3.819247148E1
2.343525000E0,9.923660278E0,1.934902382E1,-3.166708374E1,3.841442371E1
2.353482000E0,9.599609375E0,1.887782288E1,-3.211624146E1,3.847047780E1
2.363439000E0,9.345382690E0,1.847679710E1,-3.250360107E1,3.853845212E1
2.373396000E0,8.944808960E0,1.794309425E1,-3.280172729E1,3.844369327E1
2.383353000E0,8.728500366E0,1.743278122E1,-3.342871094E1,3.869841463E1
2.393310000E0,8.616561890E0,1.695433044E1,-3.356790161E1,3.858106373E1
2.403267000E0,8.508438110E0,1.638098335E1,-3.402258301E1,3.870744488E1
2.413224000E0,8.300170898E0,1.582624817E1,-3.449789429E1,3.885186840E1
2.423181000E0,8.053146362E0,1.533803558E1,-3.490716553E1,3.896945864E1
2.433138000E0,7.681884766E0,1.490125275E1,-3.512548828E1,3.892118464E1
2.443095000E0,6.891067505E0,1.460426140E1,-3.538281250E1,3.889363293E1
2.453052000E0,6.242706299E0,1.434478378E1,-3.557785034E1,3.886550706E1
2.463009000E0,5.183151245E0,1.448302078E1,-3.590411377E1,3.906057262E1
2.472966000E0,3.813140869E0,1.471779251E1,-3.569235229E1,3.879558573E1
2.482923000E0,2.490158081E0,1.480333328E1,-3.572973633E1,3.875504640E1
2.492880000E0,1.960601807E0,1.466066360E1,-3.589212036E1,3.882039826E1
2.502837000E0,2.256057739E0,1.422732353E1,-3.617376709E1,3.893646051E1
2.512794000E0,2.862899780E0,1.382634163E1,-3.643676758E1,3.907687231E1
2.522751000E0,3.871566772E0,1.364705086E1,-3.645043945E1,3.911349592E1
2.532708000E0,5.228988647E0,1.360414314E1,-3.622387695E1,3.904592545E1
2.542665000E0,6.584304810E0,1.403559113E1,-3.583477783E1,3.904461794E1
2.552622000E0,7.951339722E0,1.461483765E1,-3.527911377E1,3.900555282E1
2.562579000E0,9.163696289E0,1.529119682E1,-3.482839966E1,3.912558565E1
2.572536000E0,9.868621826E0,1.607838821E1,-3.431295776E1,3.915716199E1
2.582493000E0,1.014552307E1,1.688352203E1,-3.350585938E1,3.886679260E1
2.592450000E0,1.007090759E1,1.775641823E1,-3.291635132E1,3.873241217E1
2.602407000E0,9.833999634E0,1.842803383E1,-3.245263672E1,3.859369909E1
2.612364000E0,9.822113037E0,1.907839584E1,-3.199334717E1,3.852315350E1
2.622321000E0,1.008241272E1,1.950697708E1,-3.117953491E1,3.813581779E1
2.632278000E0,1.036006165E1,1.972024536E1,-3.099948120E1,3.817311605E1
2.642235000E0,1.062164307E1,1.972789192E1,-3.086358643E1,3.813882521E1
2.652192000E0,1.094602966E1,1.943798828E1,-3.094400024E1,3.814684921E1
2.662149000E0,1.129402161E1,1.919544029E1,-3.091589355E1,3.810265511E1
2.672106000E0,1.150077820E1,1.927209282E1,-3.064752197E1,3.798620886E1
2.682063000E0,1.099125671E1,1.957031441E1,-3.048550415E1,3.785724361E1
2.692020000E0,1.099125671E1,1.957031441E1,-3.048550415E1,3.785724361E1
2.701977000E0,1.059580994E1,2.022071457E1,-3.020550537E1,3.786186790E1
2.711934000E0,1.028366089E1,2.061065292E1,-2.963098145E1,3.753062425E1
2.721891000E0,1.024360657E1,2.101476097E1,-2.920578003E1,3.741028256E1
2.731848000E0,1.057235718E1,2.145453453E1,-2.846978760E1,3.718333759E1
2.741805000E0,1.092036438E1,2.181179428E1,-2.809811401E1,3.720904109E1
2.751762000E0,1.137213135E1,2.216293716E1,-2.751861572E1,3.711866601E1
2.761719000E0,1.208081055E1,2.255636406E1,-2.689968872E1,3.712585078E1
2.771676000E0,1.272489929E1,2.289924240E1,-2.612237549E1,3.699563306E1
